#  Converted spectrum (two-column → MC-GPU style)
#  Source file: raw_spectrum.txt
#  Edit this header as needed.
#
#  Energy [eV]    Num. photons/(mm^2*keV)
# ----------------------------------------------------
 9.0e3   7.34419e-17
10.0e3   6.86273e-14
11.0e3   9.40371e-12
12.0e3   6.30298e-10
13.0e3   1.60959e-08
14.0e3   2.85798e-07
15.0e3    2.5639e-06
16.0e3   1.37389e-05
17.0e3   5.09418e-05
18.0e3    0.00013336
19.0e3   0.000308241
20.0e3   0.000632473
21.0e3    0.00105401
22.0e3    0.00164216
23.0e3    0.00245292
24.0e3    0.00344755
25.0e3     0.0046572
26.0e3    0.00601065
27.0e3    0.00756991
28.0e3    0.00916346
29.0e3     0.0109112
30.0e3     0.0125352
31.0e3     0.0138185
32.0e3     0.0150263
33.0e3     0.0162474
34.0e3     0.0172733
35.0e3     0.0182238
36.0e3     0.0190851
37.0e3     0.0198795
38.0e3     0.0205781
39.0e3     0.0212224
40.0e3     0.0216897
41.0e3      0.021933
42.0e3     0.0220317
43.0e3     0.0221072
44.0e3     0.0221095
45.0e3     0.0220292
46.0e3     0.0220611
47.0e3     0.0220546
48.0e3     0.0217613
49.0e3     0.0214167
50.0e3     0.0211115
51.0e3     0.0207136
52.0e3     0.0203233
53.0e3     0.0198989
54.0e3     0.0195759
55.0e3     0.0192284
56.0e3     0.0233458
57.0e3      0.027546
58.0e3     0.0311212
59.0e3     0.0346983
60.0e3     0.0264058
61.0e3     0.0178655
62.0e3     0.0165132
63.0e3     0.0151241
64.0e3     0.0146859
65.0e3     0.0141822
66.0e3     0.0166876
67.0e3     0.0192196
68.0e3     0.0162533
69.0e3     0.0131233
70.0e3     0.0115007
71.0e3    0.00983078
72.0e3    0.00938453
73.0e3    0.00889108
74.0e3    0.00859075
75.0e3    0.00833962
76.0e3    0.00796199
77.0e3    0.00753209
78.0e3    0.00721812
79.0e3    0.00672254
80.0e3    0.00650165
81.0e3    0.00605158
82.0e3    0.00567788
83.0e3    0.00539915
84.0e3    0.00500786
85.0e3    0.00461699
86.0e3    0.00435554
87.0e3    0.00409389
88.0e3    0.00372973
89.0e3    0.00336407
90.0e3    0.00306788
91.0e3    0.00277314
92.0e3    0.00238174
93.0e3    0.00204711
94.0e3    0.00175272
95.0e3    0.00145648
96.0e3    0.00118519
97.0e3   0.000903136
98.0e3   0.000581754
99.0e3   0.000261968
100.0e3   6.04854e-05
101.0e3   -1
